# Refined Primakoff flux which accounts for the nonzero plasma frequency
# energy [keV]		Flux [cm^-2 s^-1 keV^-1]
1.000000000000000048e-04 3.489059125346683715e-08
1.006935148416371025e-04 3.586640045392699475e-08
1.013918393116299135e-04 3.686898650327025669e-08
1.020950067654649015e-04 3.790222600851089781e-08
1.028030507899538109e-04 3.896269258789391478e-08
1.035160052048378658e-04 4.005243380578234608e-08
1.042339040644032447e-04 4.117533982206877730e-08
1.049567816591076553e-04 4.232783631907211082e-08
1.056846725172182243e-04 4.351230368467950199e-08
1.064176114064606919e-04 4.473267892820113429e-08
1.071556333356801918e-04 4.598523143986850623e-08
1.078987735565133761e-04 4.727270597443028698e-08
1.086470675650721946e-04 4.859908968681142016e-08
1.094005511036394651e-04 4.996052019193505760e-08
1.101592601623759769e-04 5.136000976664600426e-08
1.109232309810396827e-04 5.280183358435024424e-08
1.116925000507166008e-04 5.428181801569533936e-08
1.124671041155638461e-04 5.580312096485342234e-08
1.132470801745647361e-04 5.737055124340638922e-08
1.140324654832960006e-04 5.897951960929700893e-08
1.148232975557073634e-04 6.063322888326216530e-08
1.156196141659133223e-04 6.233736889244161176e-08
1.164214533499974914e-04 6.408675377257701816e-08
1.172288534078293318e-04 6.588452618897735035e-08
1.180418529048936333e-04 6.773747664610605081e-08
1.188604906741323850e-04 6.963970185462815359e-08
1.196848058178001699e-04 7.159411283403718050e-08
1.205148377093311616e-04 7.360909950858334007e-08
1.213506259952202416e-04 7.567777744719078922e-08
1.221922105969166128e-04 7.780262685133165782e-08
1.230396317127307082e-04 7.999406385479536735e-08
1.238929298197541092e-04 8.224401492356511660e-08
1.247521456757931524e-04 8.455419293633813125e-08
1.256173203213155202e-04 8.693783195877253085e-08
1.264884950814106404e-04 8.938524056666064749e-08
1.273657115677636394e-04 9.189794794694743143e-08
1.282490116806427928e-04 9.448995622407001317e-08
1.291384376109009626e-04 9.715235447813251852e-08
1.300340318419908043e-04 9.988594315438589305e-08
1.309358371519941488e-04 1.027043575160593121e-07
1.318438966156649920e-04 1.056010376176940344e-07
1.327582536064873104e-04 1.085753592842990481e-07
1.336789517987465106e-04 1.116401619033046290e-07
1.346060351696157329e-04 1.147921393092919907e-07
1.355395480012562754e-04 1.180287659874242499e-07
1.364795348829328460e-04 1.213615903507315347e-07
1.374260407131432603e-04 1.247917495224034271e-07
1.383791107017631565e-04 1.283142306542224741e-07
1.393387903722053192e-04 1.319386848326335125e-07
1.403051255635941554e-04 1.356719580126080643e-07
1.412781624329552681e-04 1.395059521758197835e-07
1.422579474574199641e-04 1.434478095531475577e-07
1.432445274364454839e-04 1.475116263922756462e-07
1.442379494940501650e-04 1.516853045068079653e-07
1.452382610810644360e-04 1.559726323019940115e-07
1.462455099773972596e-04 1.603966400300049192e-07
1.472597442943183782e-04 1.649405173748026453e-07
1.482810124767563076e-04 1.696072236945425119e-07
1.493093633056123768e-04 1.744206907325237652e-07
1.503448459000906513e-04 1.793684167228070907e-07
1.513875097200442278e-04 1.844503601720246057e-07
1.524374045683375212e-04 1.896864128925364912e-07
1.534945805932253567e-04 1.950747170493463898e-07
1.545590882907479989e-04 2.006096512800330883e-07
1.556309785071433125e-04 2.063059380807925251e-07
1.567103024412754020e-04 2.121749641553332239e-07
1.577971116470800296e-04 2.182041427394797727e-07
1.588914580360271912e-04 2.244013688500103048e-07
1.599933938796006317e-04 2.307950986916822685e-07
1.611029718117945738e-04 2.373638016391705590e-07
1.622202448316277924e-04 2.441119280869293363e-07
1.633452663056751729e-04 2.510728260630798854e-07
1.644780899706165076e-04 2.582302162396921587e-07
1.656187699358041305e-04 2.655836894881051325e-07
1.667673606858455682e-04 2.731582465724989106e-07
1.679239170832083898e-04 2.809582298082847671e-07
1.690884943708388264e-04 2.889724796325540594e-07
1.702611481748012880e-04 2.972153930386841281e-07
1.714419345069352824e-04 3.057168959376713755e-07
1.726309097675306301e-04 3.144525843134567346e-07
1.738281307480215980e-04 3.234284344358506651e-07
1.750336546336994919e-04 3.326910493749550061e-07
1.762475390064440059e-04 3.422143382822305888e-07
1.774698418474738432e-04 3.520001480781318374e-07
1.787006215401159583e-04 3.620821339116975389e-07
1.799399368725944229e-04 3.724660116132545356e-07
1.811878470408382930e-04 3.831374268168923999e-07
1.824444116513092350e-04 3.941122003507894437e-07
1.837096907238485594e-04 4.054368065720945399e-07
1.849837446945440411e-04 4.170761855141365099e-07
1.862666344186167974e-04 4.290386194982168938e-07
1.875584211733278173e-04 4.413766281497701914e-07
1.888591666609050902e-04 4.540738280399469786e-07
1.901689330114906032e-04 4.671247216630326578e-07
1.914877827861082092e-04 4.805583437721537336e-07
1.928157789796516874e-04 4.944122147862736088e-07
1.941529850238937576e-04 5.086533448142860703e-07
1.954994647905159094e-04 5.232919592405775618e-07
1.968552825941592395e-04 5.383996319105407663e-07
1.982205031954964024e-04 5.539421314195890434e-07
1.995951918043248937e-04 5.699200705713268991e-07
2.009794140826819358e-04 5.863734251350977968e-07
2.023732361479806141e-04 6.033394254734200353e-07
2.037767245761681575e-04 6.207823693488103331e-07
2.051899464049058497e-04 6.387149120592443536e-07
2.066129691367710847e-04 6.572255580140074862e-07
2.080458607424816753e-04 6.762707427570036665e-07
2.094886896641424425e-04 6.958529080565940179e-07
2.109415248185143562e-04 7.160171846876862282e-07
2.124044356003063625e-04 7.368167152633870634e-07
2.138774918854900069e-04 7.582052304613678542e-07
2.153607640346370691e-04 7.801985877959894923e-07
2.168543228962803188e-04 8.028937952979080656e-07
2.183582398102976629e-04 8.262597954502582427e-07
2.198725866113196035e-04 8.502893034483595119e-07
2.213974356321605206e-04 8.750184296982602145e-07
2.229328597072734825e-04 9.005499571870041788e-07
2.244789321762294507e-04 9.268100253703347790e-07
2.260357268872200656e-04 9.538187584835314529e-07
2.276033182005850176e-04 9.816630873519378403e-07
2.291817809923648414e-04 1.010366976068146080e-06
2.307711906578748808e-04 1.039892690466525571e-06
2.323716231153101248e-04 1.070262957490055288e-06
2.339831548093675813e-04 1.101622553460038983e-06
2.356058627149015025e-04 1.133907110792719731e-06
2.372398243405962549e-04 1.167119710098658313e-06
2.388851177326720685e-04 1.201306512121182200e-06
2.405418214786104092e-04 1.236615342645440068e-06
2.422100147109087880e-04 1.272943783481163869e-06
2.438897771108603440e-04 1.310321476673889835e-06
2.455811889123598007e-04 1.348843051936305458e-06
2.472843309057358766e-04 1.388591061310688938e-06
2.489992844416101503e-04 1.429492146032408884e-06
2.507261314347829229e-04 1.471578622877145581e-06
2.524649543681456421e-04 1.514996385270219831e-06
2.542158362966211106e-04 1.559761607844171291e-06
2.559788608511300392e-04 1.605830398683500202e-06
2.577541122425862233e-04 1.653240093614680341e-06
2.595416752659184998e-04 1.702191546931247525e-06
2.613416353041212174e-04 1.752631541965794930e-06
2.631540783323324095e-04 1.804547842185419697e-06
2.649790909219404259e-04 1.857983100174310633e-06
2.668167602447191352e-04 1.913190183707074963e-06
2.686671740769915853e-04 1.970056827706357482e-06
2.705304208038225057e-04 2.028596657223265593e-06
2.724065894232402985e-04 2.088858322556444563e-06
2.742957695504879244e-04 2.151140617808815131e-06
2.761980514223032245e-04 2.215289268895408929e-06
2.781135259012293827e-04 2.281335592719538835e-06
2.800422844799546618e-04 2.349336387319038416e-06
2.819844192856827141e-04 2.419622773929013042e-06
2.839400230845331411e-04 2.492030743054325573e-06
2.859091892859721941e-04 2.566594201829591428e-06
2.878920119472746998e-04 2.643376580590153826e-06
2.898885857780167234e-04 2.722723561253965060e-06
2.918990061445991845e-04 2.804502998307160056e-06
2.939233690748031336e-04 2.888729242346650308e-06
2.959617712623766853e-04 2.975474882125468743e-06
2.980143100716533405e-04 3.065078496406218808e-06
3.000810835422026718e-04 3.157494188573789367e-06
3.021621903935132634e-04 3.252690742743702428e-06
3.042577300297080148e-04 3.350751499368731754e-06
3.063678025442921875e-04 3.451975832884403345e-06
3.084925087249343030e-04 3.556475618965487143e-06
3.106319500582803796e-04 3.664140785362119531e-06
3.127862287348012922e-04 3.775068287780900765e-06
3.149554476536741213e-04 3.889462611706810657e-06
3.171397104276968957e-04 4.007707390176880484e-06
3.193391213882375962e-04 4.129561403039149110e-06
3.215537855902188291e-04 4.255137131287841535e-06
3.237838088171326404e-04 4.384550554822556568e-06
3.260292975860976691e-04 4.518363782551876617e-06
3.282903591529421033e-04 4.656383375413182192e-06
3.305671015173318483e-04 4.798650102710782561e-06
3.328596334279237934e-04 4.945297383294945596e-06
3.351680643875656462e-04 5.096657412076675051e-06
3.374925046585208646e-04 5.253105903057938398e-06
3.398330652677404823e-04 5.414405000635629322e-06
3.421898580121625257e-04 5.580707638407957918e-06
3.445629954640538244e-04 5.752171810018259256e-06
3.469525909763864066e-04 5.929451628605051744e-06
3.493587586882521134e-04 6.112465854001930748e-06
3.517816135303142929e-04 6.301202377002246712e-06
3.542212712302974945e-04 6.495842878690154427e-06
3.566778483185152203e-04 6.696577993493669939e-06
3.591514621334359475e-04 6.904378279236881234e-06
3.616422308272880201e-04 7.118742474249722087e-06
3.641502733717027584e-04 7.339873480196350030e-06
3.666757095633975763e-04 7.567993435150638258e-06
3.692186600298979116e-04 7.803417177500350470e-06
3.717792462352988397e-04 8.047105416900170454e-06
3.743575904860671814e-04 8.298556843748353489e-06
3.769538159368831295e-04 8.558029499689032946e-06
3.795680465965228052e-04 8.825790192390144489e-06
3.822004073337817421e-04 9.102139403121691061e-06
3.848510238834389739e-04 9.388328194386615444e-06
3.875200228522629182e-04 9.683732677784408395e-06
3.902075317250588938e-04 9.988661890809869592e-06
3.929136788707579455e-04 1.030343589928423058e-05
3.956385935485489834e-04 1.062839006456765196e-05
3.983824059140524468e-04 1.096472608235783985e-05
4.011452470255373907e-04 1.131231746964502558e-05
4.039272488501812895e-04 1.167125288018917266e-05
4.067285442703737512e-04 1.204192206295755089e-05
4.095492670900632739e-04 1.242472918401223858e-05
4.123895520411488352e-04 1.282032995880353138e-05
4.152495347899149564e-04 1.323002444408869760e-05
4.181293519435120339e-04 1.365324749722094751e-05
4.210291410564813387e-04 1.409046873549639837e-05
4.239490406373252270e-04 1.454217294667630179e-05
4.268891901551232133e-04 1.500886692026406322e-05
4.298497300461934169e-04 1.549160585259547315e-05
4.328308017208007917e-04 1.599146678850240608e-05
4.358325475699113805e-04 1.650807276223398401e-05
4.388551109719937863e-04 1.704202755228537773e-05
4.418986362998671017e-04 1.759395866355759088e-05
4.449632689275990908e-04 1.816450969090627920e-05
4.480491552374451375e-04 1.875450510166797393e-05
4.511564426268469333e-04 1.936611323944047262e-05
4.542852795154655879e-04 1.999855794117738400e-05
4.574358153522784377e-04 2.065259626681662029e-05
4.606082006227096804e-04 2.132901207273637064e-05
4.638025868558262252e-04 2.202862129096432354e-05
4.670191266315676945e-04 2.275227647326786521e-05
4.702579735880420752e-04 2.350143940588397682e-05
4.735192824288565511e-04 2.427798579800992537e-05
4.768032089305141471e-04 2.508148854288117055e-05
4.801099099498492423e-04 2.591294930779637523e-05
4.834395434315219542e-04 2.677341277072027925e-05
4.867922684155622350e-04 2.766396567494998341e-05
4.901682450449660082e-04 2.858574081127514900e-05
4.935676345733450284e-04 2.953991616496090176e-05
4.969905993726283491e-04 3.052958057464307413e-05
5.004373029408186501e-04 3.155480070889211741e-05
5.039079099098016379e-04 3.261641321775547795e-05
5.074025860532094387e-04 3.371581948994200890e-05
5.109214982943389603e-04 3.485448002622044874e-05
5.144648147141247900e-04 3.603391109513858897e-05
5.180327045591681450e-04 3.725570349288933052e-05
5.216253382498200336e-04 3.852151195652087036e-05
5.252428873883222037e-04 3.983351548991670611e-05
5.288855247670034947e-04 4.119535974601238595e-05
5.325534243765328926e-04 4.260672385134265370e-05
5.362467614142308074e-04 4.406955511052672644e-05
5.399657122924367281e-04 4.558587806689135046e-05
5.437104546469362929e-04 4.715780747954404070e-05
5.474811673454453879e-04 4.878754797855752154e-05
5.512780304961540940e-04 5.047739224547300466e-05
5.551012254563296141e-04 5.222972421371420329e-05
5.589509348409787233e-04 5.404704315158487770e-05
5.628273425315701755e-04 5.593195580756908869e-05
5.667306336848183671e-04 5.788996165321638244e-05
5.706609947415265238e-04 5.992181286186174871e-05
5.746186134354928790e-04 6.202992467594787001e-05
5.786036788024773517e-04 6.421737566717169890e-05
5.826163811892308897e-04 6.648736323084664796e-05
5.866569122625871560e-04 6.884322418001660965e-05
5.907254650186180740e-04 7.128845742186927504e-05
5.948222337918520394e-04 7.382670101964412910e-05
5.989474142645558833e-04 7.646174731507800995e-05
6.031012034760822134e-04 7.919756445930374133e-05
6.072837998322808302e-04 8.203829770222562643e-05
6.114954031149754136e-04 8.498826886182986057e-05
6.157362144915063448e-04 8.805196762498197229e-05
6.200064365243387974e-04 9.123644471869550901e-05
6.243062731807410854e-04 9.454616739779638857e-05
6.286359298425202562e-04 9.798454120047439824e-05
6.329956133158422520e-04 1.015568487207332886e-04
6.373855318410986915e-04 1.052686673045048619e-04
6.418058951028649418e-04 1.091258159312660835e-04
6.462569142399044852e-04 1.131342938533084173e-04
6.507388018552649018e-04 1.173004016327296428e-04
6.552517720264218817e-04 1.216307152774424454e-04
6.597960403155159366e-04 1.261320559107675704e-04
6.643718237796372500e-04 1.308115634889828421e-04
6.689793409812040941e-04 1.356766764741140774e-04
6.736188119983948066e-04 1.407351347942871012e-04
6.782904584356632500e-04 1.459949805195292973e-04
6.829945034343229025e-04 1.514646205379484713e-04
6.877311716832055404e-04 1.571528618636810386e-04
6.925006894293933221e-04 1.630688592004358604e-04
6.973032844890253565e-04 1.692221031535408988e-04
7.021391862581797313e-04 1.756234647538629668e-04
7.070086257238302439e-04 1.822881715888272536e-04
7.119118354748794593e-04 1.892218651598836176e-04
7.168490497132688549e-04 1.964358196814034666e-04
7.218205042651648596e-04 2.039416799949987766e-04
7.268264365922236063e-04 2.117517084022184901e-04
7.318670858029326619e-04 2.198787768100240862e-04
7.369426926640329891e-04 2.283362091800150424e-04
7.420534996120181030e-04 2.371378398160680907e-04
7.471997507647149765e-04 2.462980917269162024e-04
7.523816919329437674e-04 2.558320106125171038e-04
7.575995706322589691e-04 2.657552973289807781e-04
7.628536360947726349e-04 2.760842496463151302e-04
7.681441392810581595e-04 2.868357934673557174e-04
7.734713328921378681e-04 2.980275997012564525e-04
7.788354713815532227e-04 3.096781380984366290e-04
7.842368109675185118e-04 3.218066437346370494e-04
7.896756096451597578e-04 3.344330808894811768e-04
7.951521271988372169e-04 3.475781880665576866e-04
8.006666252145542900e-04 3.612634752837131703e-04
8.062193670924520852e-04 3.755114877919974717e-04
8.118106180593909335e-04 3.903456462268404354e-04
8.174406451816187491e-04 4.057954285655656582e-04
8.231097173775273187e-04 4.218940788863727721e-04
8.288181054304977115e-04 4.386568519377864262e-04
8.345660820018336191e-04 4.561116716644744566e-04
8.403539216437855503e-04 4.742875507706672948e-04
8.461819008126646906e-04 4.932146886044237646e-04
8.520502978820474003e-04 5.129245536526728586e-04
8.579593931560716528e-04 5.334499026230157944e-04
8.639094688828295341e-04 5.548248891974478635e-04
8.699008092678393216e-04 5.770850468087272180e-04
8.759337004876338985e-04 6.002673644522401198e-04
8.820084307034158468e-04 6.244100239914007104e-04
8.881252900748353796e-04 6.495529747542758484e-04
8.942845707738360369e-04 6.757379564743959269e-04
9.004865669986240884e-04 7.030086346538603646e-04
9.067315749877071082e-04 7.314104815589812141e-04
9.130198930340575588e-04 7.609906201382613975e-04
9.193518214993470642e-04 7.917985225438572755e-04
9.257276628283069931e-04 8.238857042972923652e-04
9.321477215631605992e-04 8.573055597228863584e-04
9.386123043581832059e-04 8.921463733698883035e-04
9.451217199943391526e-04 9.284471705985311747e-04
9.516762793940357259e-04 9.662592098987612607e-04
9.582762956359731519e-04 1.005645463001130164e-03
9.649220839700988882e-04 1.046670651560801168e-03
9.716139618326655658e-04 1.089403657914081577e-03
9.783522488613933393e-04 1.133916362112584279e-03
9.851372669107372974e-04 1.180283419689599550e-03
9.919693400672615572e-04 1.228582723651360387e-03
9.988487946651174437e-04 1.278895777866756196e-03
1.005775959301633340e-03 1.331307476476011097e-03
1.012751164853008083e-03 1.385906131788661915e-03
1.019774744490116458e-03 1.442783891300889647e-03
1.026847033694422255e-03 1.502037005474663161e-03
1.033968370274003208e-03 1.563765735193383766e-03
1.041139094379686745e-03 1.628074479358011155e-03
1.048359548521296102e-03 1.695069788515459744e-03
1.055630077584010940e-03 1.764864636019217864e-03
1.062951028844841359e-03 1.837576746780036950e-03
1.070322751989214458e-03 1.913419667053138391e-03
1.077745599127678420e-03 1.992440901698692111e-03
1.085219924812719575e-03 2.074772141547793786e-03
1.092746086055698717e-03 2.160553112254232338e-03
1.100324442343903440e-03 2.249930806642774523e-03
1.107955355657719082e-03 2.343058927125043697e-03
1.115639190487918491e-03 2.440097380030823663e-03
1.123376313853072152e-03 2.541213326472765554e-03
1.131167095317079079e-03 2.646581301299564138e-03
1.139011907006818279e-03 2.756383467319130712e-03
1.146911123629924464e-03 2.870809979486452224e-03
1.154865122492683676e-03 2.990058736984934750e-03
1.162874283518062048e-03 3.114337407719432009e-03
1.170938989263839740e-03 3.243862813830738177e-03
1.179059624940900991e-03 3.378861336867927147e-03
1.187236578431615690e-03 3.519569583413713343e-03
1.195470240308384646e-03 3.666234372163748589e-03
1.203761003852276811e-03 3.819113305149650622e-03
1.212109265071833466e-03 3.978476454335354816e-03
1.220515422721963695e-03 4.144606918119241555e-03
1.228979878323011596e-03 4.317800077297966749e-03
1.237503036179913923e-03 4.498363487062168389e-03
1.246085303401532705e-03 4.686653886335693901e-03
1.254727089920079815e-03 4.883078631576329327e-03
1.263428808510718045e-03 5.087890950349348990e-03
1.272190874811257371e-03 5.301460182306206616e-03
1.281013707342027515e-03 5.524171677145289956e-03
1.289897727525848945e-03 5.756426937611347321e-03
1.298843359708181690e-03 5.998645466906912804e-03
1.307851031177374550e-03 6.251268056258652180e-03
1.316921172185094935e-03 6.514751996857080438e-03
1.326054215966858451e-03 6.789575887437632011e-03
1.335250598762744529e-03 7.076241064736981008e-03
1.344510759838210947e-03 7.375270225556242697e-03
1.353835141505098068e-03 7.687210549252957228e-03
1.363224189142733279e-03 8.012634034649057310e-03
1.372678351219225150e-03 8.352139510861084082e-03
1.382198079312869921e-03 8.706351002319836357e-03
1.391783828133727561e-03 9.075924103589623829e-03
1.401436055545339857e-03 9.461547203508930901e-03
1.411155222586600502e-03 9.863935092821008582e-03
1.420941793493775678e-03 1.028383344115831217e-02
1.430796235722679244e-03 1.072202283802155959e-02
1.440719019971001009e-03 1.117932233758901252e-02
1.450710620200788533e-03 1.165658389776776452e-02
1.460771513661086570e-03 1.215469578690441498e-02
1.470902180910733286e-03 1.267458887423018529e-02
1.481103105841313035e-03 1.321723767578368916e-02
1.491374775700270465e-03 1.378366359561884226e-02
1.501717681114184003e-03 1.437493849922129655e-02
1.512132316112199367e-03 1.499218381349321123e-02
1.522619178149628308e-03 1.563657903987742889e-02
1.533178768131708688e-03 1.630936439111119185e-02
1.543811590437531083e-03 1.701182941753677166e-02
