# Saclay seismic solar model 
#  Longitudinal plasmon->axion flux for g_ag = 1e-10 GeV^{-1} 
#  B = 7e6 G with step down to 1e3 at 0.75 R_sol 
#  omega [keV] 	 Flux [keV^{-1} s^{-1} cm^{-2}] 
1.000000000000000021e-03 4.663808376994390770e+00
1.009962701490044103e-03 4.746413000533039828e+00
1.020024658401067841e-03 4.830172423633976919e+00
1.030186859585202055e-03 4.950868108465123818e+00
1.040450303746215301e-03 5.033283902372422070e+00
1.050815999537664525e-03 5.120301542326052058e+00
1.061284965662020628e-03 5.252363433758010736e+00
1.071858230970783050e-03 5.342567561767902262e+00
1.082536834565591809e-03 5.485004851610760568e+00
1.093321825900345906e-03 5.585633117289626526e+00
1.104214264884341087e-03 5.686272373043159689e+00
1.115215221986432187e-03 5.841598917973464644e+00
1.126325778340236299e-03 5.948524550519354470e+00
1.137547025850381768e-03 6.056479175076254329e+00
1.148880067299816454e-03 6.224085176728994639e+00
1.160326016458186312e-03 6.339296943989781496e+00
1.171885998191291240e-03 6.458317225984320231e+00
1.183561148571633586e-03 6.637319181989405514e+00
1.195352614990066471e-03 6.762064197496117757e+00
1.207261556268556012e-03 6.957976841949675695e+00
1.219289142774065710e-03 7.088643840966315501e+00
1.231436556533575550e-03 7.221573869965378201e+00
1.243704991350247325e-03 7.434492010603946710e+00
1.256095652920747674e-03 7.577561655000446983e+00
1.268609758953739234e-03 7.797007935136685219e+00
1.281248539289552056e-03 7.945514112260149808e+00
1.294013236021048950e-03 8.100280052801020148e+00
1.306905103615692764e-03 8.331492910451292033e+00
1.319925409038831023e-03 8.491987127792397061e+00
1.333075431878209165e-03 8.737021215186405954e+00
1.346356464469723475e-03 8.904289027798652612e+00
1.359769812024426471e-03 9.076130407924246413e+00
1.373316792756799302e-03 9.343063293433884198e+00
1.386998738014300027e-03 9.526567977184409841e+00
1.400816992408204266e-03 9.800658199691520522e+00
1.414772913945748630e-03 9.989428841710228824e+00
1.428867874163589936e-03 1.018278033790958936e+01
1.443103258262595605e-03 1.047089848124313427e+01
1.457480465243975870e-03 1.067228106576278179e+01
1.472000908046772324e-03 1.098471606492510411e+01
1.486666013686716243e-03 1.120083956417373194e+01
1.501477223396470786e-03 1.154679455179450898e+01
1.516435992767270089e-03 1.177850380923637452e+01
1.531543791891969110e-03 1.201210187557491871e+01
1.546802105509518990e-03 1.237042925138077543e+01
1.562212433150882021e-03 1.261286750712519833e+01
1.577776289286399658e-03 1.299011750230242335e+01
1.593495203474629618e-03 1.325049561779931295e+01
1.609370720512664447e-03 1.365233126001349184e+01
1.625404400587949312e-03 1.392219854726381634e+01
1.641597819431610955e-03 1.434817023698968796e+01
1.657952568473315593e-03 1.463035993320368178e+01
1.674470254997667031e-03 1.491800255346067061e+01
1.691152502302166894e-03 1.536867408830596382e+01
1.708000949856744357e-03 1.567339278290366344e+01
1.725017253464878990e-03 1.614846140659313889e+01
1.742203085426325196e-03 1.646377776912916246e+01
1.759560134701461647e-03 1.695109609235759507e+01
1.777090107077273964e-03 1.728191016142407221e+01
1.794794725334995355e-03 1.779927497431042127e+01
1.812675729419413679e-03 1.814973448898641450e+01
1.830734876609867254e-03 1.868565639312703652e+01
1.848973941692944175e-03 1.904545829281156699e+01
1.867394717136901163e-03 1.960036474341430335e+01
1.885999013267821269e-03 1.998065258559057966e+01
1.904788658447526461e-03 2.057607291117912851e+01
1.923765499253260718e-03 2.097270801057592848e+01
1.942931400659166606e-03 2.157617159448502164e+01
1.962288246219567271e-03 2.199108457565098007e+01
1.981837938254074876e-03 2.264434941125060874e+01
2.001582398034544574e-03 2.308795886914849405e+01
2.021523565973889613e-03 2.376844576666757192e+01
2.041663401816776885e-03 2.422897971407436657e+01
2.062003884832225471e-03 2.494876052694394630e+01
2.082547014008119882e-03 2.543502718067705359e+01
2.103294808247665754e-03 2.617892974568975006e+01
2.124249306567796685e-03 2.668545310290576822e+01
2.145412568299564712e-03 2.746840177508064329e+01
2.166786673290522266e-03 2.801264211263836401e+01
2.188373722109121598e-03 2.883279852185932057e+01
2.210175836251151212e-03 2.939264898863907405e+01
2.232195158348230114e-03 3.023935615322597315e+01
2.254433852378375045e-03 3.082446900179309779e+01
2.276894103878671083e-03 3.171486494882183749e+01
2.299578120160055989e-03 3.232145346334149139e+01
2.322488130524247383e-03 3.326340986322309590e+01
2.345626386482830943e-03 3.390188787338468046e+01
2.368995161978530023e-03 3.486336368339016190e+01
2.392596753608680973e-03 3.552297544357374903e+01
2.416433480850932805e-03 3.653142329733736915e+01
2.440507686291198963e-03 3.722104472835165723e+01
2.464821735853876383e-03 3.829239178445656933e+01
2.489378019034360883e-03 3.902536594309591322e+01
2.514178949133877555e-03 4.014626980878325924e+01
2.539226963496650849e-03 4.090020605206678539e+01
2.564524523749439101e-03 4.204568163041066242e+01
2.590074116043452560e-03 4.283566867021902169e+01
2.615878251298683118e-03 4.403017937689649131e+01
2.641939465450670460e-03 4.485832466065957647e+01
2.668260319699722414e-03 4.612880272872796183e+01
2.694843400762620290e-03 4.700106813515669302e+01
2.721691321126833499e-03 4.832908935547246898e+01
2.748806719307263832e-03 4.925043436184784440e+01
2.776192260105549755e-03 5.065815427583682862e+01
2.803850634871951977e-03 5.162156405281675831e+01
2.831784561769851941e-03 5.310836642278829345e+01
2.859996786042880157e-03 5.410351091898105125e+01
2.888490080284711239e-03 5.559224393691228272e+01
2.917267244711541259e-03 5.661957022410292950e+01
2.946331107437285581e-03 5.817732169014106347e+01
2.975684524751514518e-03 5.925003994777966199e+01
3.005330381400157617e-03 6.088926682891604969e+01
3.035271590869007777e-03 6.256643298396547692e+01
3.065511095670049938e-03 6.372999235415270647e+01
3.096051867630625603e-03 6.549838482312135568e+01
3.126896908185526451e-03 6.672211698399934221e+01
3.158049248671917272e-03 6.855188133606327483e+01
3.189511950627296841e-03 6.979263125864466133e+01
3.221288106090321526e-03 7.166947557699340621e+01
3.253380837904732304e-03 7.297410270551699796e+01
3.285793300026203494e-03 7.493597908220019121e+01
3.318528677832354758e-03 7.629994998914982318e+01
3.351590188435745951e-03 7.835422041455862541e+01
3.384981081000095100e-03 7.978351502501811865e+01
3.418704637059542546e-03 8.196204762697782087e+01
3.452764170841199787e-03 8.345205596191567565e+01
3.487163029590806956e-03 8.566297285830118824e+01
3.521904593901741334e-03 8.719990056009542911e+01
3.556992278047195651e-03 8.951184396330219784e+01
3.592429530315775516e-03 9.190171041576900279e+01
3.628219833350327349e-03 9.355406878071319454e+01
3.664366704490257861e-03 9.606590940523807376e+01
3.700873696117147355e-03 9.779447214027351265e+01
3.737744396003922238e-03 1.003945406130602720e+02
3.774982427667390728e-03 1.021766141635752660e+02
3.812591450724407173e-03 1.048438628646219257e+02
3.850575161251464616e-03 1.066985423222439380e+02
3.888937292147995328e-03 1.094833391416732695e+02
3.927681613503162042e-03 1.114266601957349394e+02
3.966811932966433051e-03 1.143263730129254157e+02
4.006332096121718693e-03 1.163540528562111689e+02
4.046245986865365865e-03 1.193622957201673103e+02
4.086557527787790245e-03 1.214364892721493305e+02
4.127270680559036800e-03 1.245277077330249540e+02
4.168389446318053471e-03 1.276842261830346388e+02
4.209917866065974665e-03 1.299182324855817399e+02
4.251860021063189055e-03 1.332237618229093243e+02
4.294220033230498716e-03 1.355581593610600919e+02
4.337002065554137163e-03 1.389579492459773462e+02
4.380210322494961991e-03 1.413332194717524715e+02
4.423849050401584479e-03 1.448449174013513243e+02
4.467922537927755330e-03 1.473239014595141612e+02
4.512435116453764571e-03 1.509630105246104961e+02
4.557391160512191258e-03 1.535408730761317031e+02
4.602795088217735003e-03 1.573126199520516195e+02
4.648651361701493581e-03 1.611800179094888108e+02
4.694964487549408219e-03 1.639142021513223426e+02
4.741739017245226104e-03 1.679456672433990150e+02
4.788979547617730308e-03 1.708137586615845009e+02
4.836690721292577141e-03 1.749848355203349399e+02
4.884877227148475519e-03 1.779219503524239201e+02
4.933543800778075229e-03 1.821823083018641967e+02
4.982695224953284825e-03 1.852187007114203539e+02
5.032336330095362603e-03 1.896260286914910296e+02
5.082471994749607203e-03 1.940965529686694140e+02
5.133107146064806552e-03 1.973214782712666420e+02
5.184246760277462507e-03 2.019782422513533788e+02
5.235895863200834555e-03 2.052999826351783952e+02
5.288059530718861555e-03 2.101368880067925602e+02
5.340742889284996221e-03 2.135912511969029026e+02
5.393951116426018259e-03 2.185394116436420688e+02
5.447689441250860853e-03 2.235063502112824096e+02
5.501963144964508619e-03 2.271238781063938745e+02
5.556777561387013856e-03 2.322561672096359473e+02
5.612138077477688350e-03 2.359928135136547382e+02
5.668050133864508018e-03 2.413187698688062426e+02
5.724519225378804990e-03 2.451917105361138738e+02
5.781550901595272282e-03 2.507018939325398605e+02
5.839150767377361724e-03 2.563162328968372776e+02
5.897324483428103767e-03 2.603698929926928258e+02
5.956077766846426362e-03 2.660683834571075863e+02
6.015416391689005875e-03 2.702224888288850480e+02
6.075346189537722021e-03 2.760776656238052738e+02
6.135873050072762798e-03 2.803761351343837305e+02
6.197002921651444465e-03 2.863954302150893341e+02
6.258741811892789067e-03 2.924891815448117995e+02
6.321095788267934966e-03 2.970108975678089109e+02
6.384070978696422885e-03 3.032864623961438610e+02
6.447673572148429448e-03 3.078971030740290189e+02
6.511909819252990721e-03 3.142969171788844847e+02
6.576786032912294681e-03 3.208090969861207782e+02
6.642308588922091195e-03 3.256550097655330660e+02
6.708483926598278468e-03 3.323587402957733161e+02
6.775318549409736248e-03 3.373695810093269642e+02
6.842819025617463864e-03 3.442344969603313984e+02
6.910991988920084719e-03 3.511404905684517530e+02
6.979844139105782254e-03 3.563225124616809012e+02
7.049382242710726387e-03 3.633891207021536616e+02
7.119613133684071088e-03 3.705322030863917462e+02
7.190543714059562976e-03 3.759413588696715465e+02
7.262180954633852027e-03 3.832946291912067522e+02
7.334531895651552093e-03 3.888238630696449150e+02
7.407603647497136221e-03 3.962194780425325007e+02
7.481403391393711896e-03 4.036932282336647972e+02
7.555938380108770738e-03 4.094518678182508324e+02
7.631215938666962087e-03 4.170693083249506117e+02
7.707243465069967686e-03 4.248452286058618483e+02
7.784028431023552914e-03 4.307863669971953868e+02
7.861578382671857018e-03 4.386872874264669804e+02
7.939900941338999540e-03 4.447883027214147660e+02
8.019003804278080141e-03 4.528194868128879875e+02
8.098894745427631658e-03 4.608264702168775102e+02
8.179581616175614009e-03 4.670871721937474490e+02
8.261072346131024396e-03 4.752771658850942913e+02
8.343374943903185403e-03 4.835160763811412608e+02
8.426497497888806379e-03 4.900191230599972982e+02
8.510448177066875369e-03 4.984631654378634380e+02
8.595235231801483938e-03 5.069828702169036205e+02
8.680866994652631716e-03 5.136844984329393355e+02
8.767351881195132104e-03 5.222444538478712275e+02
8.854698390845655576e-03 5.308444355186743451e+02
8.942915107698025043e-03 5.377220763147032585e+02
9.032010701366825767e-03 5.464410511667443870e+02
9.121993927839426933e-03 5.552167080975489171e+02
9.212873630336486028e-03 5.622946625479902423e+02
9.304658740181027954e-03 5.712072770363861309e+02
9.397358277676180413e-03 5.801140703545079305e+02
9.490981352991664441e-03 5.874279036975729014e+02
9.585537167059093866e-03 5.964827995570703933e+02
9.681035012476227677e-03 6.056158990656957712e+02
9.777484274420192648e-03 6.146565069347536792e+02
9.874894431569842743e-03 6.221335856630806802e+02
9.973275057037270935e-03 6.312200258775635575e+02
1.007263581930863648e-02 6.403348968899501870e+02
1.017298648319433368e-02 3.175061242125268936e+10
1.027433691078865306e-02 3.220002679999388504e+10
1.037669706243898177e-02 3.264927763355344772e+10
1.048007699772467854e-02 3.310037669256379700e+10
1.058448687644568745e-02 3.348689958941508865e+10
1.068993695962100476e-02 3.394029278901511002e+10
1.079643761049709980e-02 3.439187680422742462e+10
1.090399929556636581e-02 3.484001466774907684e+10
1.101263258559574514e-02 3.523232523704473877e+10
1.112234815666556832e-02 3.568220626656458282e+10
1.123315679121877041e-02 3.613209774503952026e+10
1.134506937912054328e-02 3.658535209077394104e+10
1.145809691872856119e-02 3.703662315690323639e+10
1.157225051797384878e-02 3.744372712518121338e+10
1.168754139545243043e-02 3.703607161004252625e+10
1.180398088152785629e-02 3.657666420914370728e+10
1.192158041944470573e-02 3.599550440408068848e+10
1.204035156645318939e-02 3.590762879918981934e+10
1.216030599494494734e-02 3.543278218963468933e+10
1.228145549360017651e-02 3.498324776612827301e+10
1.240381196854617799e-02 3.495443397014771271e+10
1.252738744452744010e-02 3.462439364346722412e+10
1.265219406608739279e-02 3.462663629359107208e+10
1.277824409876192856e-02 3.430578075515003204e+10
1.290554993028481152e-02 3.400001884572254562e+10
1.303412407180509769e-02 3.401335037027805328e+10
1.316397915911669131e-02 3.372188188894041443e+10
1.329512795390013283e-02 3.373900335343752289e+10
1.342758334497677966e-02 3.345000627395436096e+10
1.356135834957547179e-02 3.346254180936571503e+10
1.369646611461180878e-02 3.315532174331090164e+10
1.383291991798019094e-02 3.315227826488124847e+10
1.397073316985871297e-02 3.283395012942005920e+10
1.410991941402707332e-02 3.284935468733057022e+10
1.425049232919760323e-02 3.260060759586483002e+10
1.439246573035956114e-02 3.263942914438395309e+10
1.453585357013682279e-02 3.240137582368107605e+10
1.468066994015908809e-02 3.243486453628145599e+10
1.482692907244675777e-02 3.218747048787070847e+10
1.497464534080960100e-02 3.221751895466610336e+10
1.512383326225936672e-02 3.197299726831396866e+10
1.527450749843645671e-02 3.200488640742575455e+10
1.542668285705081806e-02 3.176169686929119492e+10
1.558037429333719755e-02 3.179319150186756134e+10
1.573559691152487047e-02 3.155178861917303085e+10
1.589236596632205567e-02 3.131261322949765396e+10
1.605069686441505661e-02 3.134391321033205032e+10
1.621060516598241130e-02 3.110748317248104477e+10
1.637210658622405973e-02 3.113813302884729385e+10
1.653521699690579591e-02 3.090303161368025970e+10
1.669995242791907225e-02 3.093357306555537796e+10
1.686632906885636787e-02 3.069874187118351364e+10
1.703436327060223535e-02 3.072812506040814972e+10
1.720407154694021667e-02 3.049595766276507568e+10
1.737547057617574303e-02 3.052593404656581116e+10
1.754857720277522987e-02 3.029171052801836395e+10
1.772340843902147148e-02 3.032030768778733826e+10
1.789998146668557097e-02 3.008877310577175140e+10
1.807831363871548191e-02 3.011665345369078445e+10
1.825842248094139419e-02 2.988426422028909683e+10
1.844032569379812359e-02 2.991165288664952469e+10
1.862404115406462654e-02 2.967991092772485352e+10
1.880958691662086915e-02 2.945175097253492737e+10
1.899698121622220293e-02 2.947707596391344833e+10
1.918624246929139660e-02 2.924846622888312149e+10
1.937738927572855638e-02 2.927372534852504730e+10
1.957044042073902146e-02 2.904560551926733017e+10
1.976541487667953650e-02 2.907091739029181671e+10
1.996233180492277062e-02 2.884620283319758987e+10
2.016121055774042908e-02 2.862403004568664551e+10
2.036207068020512434e-02 2.864966667617662430e+10
2.056493191211118676e-02 2.843011091467475891e+10
2.076981418991463366e-02 2.845486674801415253e+10
2.097673764869243535e-02 2.823766914747316360e+10
2.118572262412132465e-02 2.826268522426313019e+10
2.139678965447631975e-02 2.804794921455214310e+10
2.160995948264913397e-02 2.783332127554066849e+10
2.182525305818671518e-02 2.786106836480387878e+10
2.204269153935009898e-02 2.764868741026174927e+10
2.226229629519376613e-02 2.767568065111151886e+10
2.248408890766569537e-02 2.746593258909774399e+10
2.270809117372838207e-02 2.725929645121134567e+10
2.293432510750094064e-02 2.728643098532436371e+10
2.316281294242259620e-02 2.708163657652091217e+10
2.339357713343768325e-02 2.688025607148033524e+10
2.362664035920244640e-02 2.690731299898067474e+10
2.386202552431380616e-02 2.670565644027701950e+10
2.409975576156037080e-02 2.650801631050622559e+10
2.433985443419576719e-02 2.653567403829884720e+10
2.458234513823478670e-02 2.633999827930007935e+10
2.482725170477225601e-02 2.614646891690955353e+10
2.507459820232509073e-02 2.617531712465637207e+10
2.532440893919765332e-02 2.598373771251392365e+10
2.557670846587068239e-02 2.579511665305648041e+10
2.583152157741403637e-02 2.582368102188594055e+10
2.608887331592344566e-02 2.563812947261864471e+10
2.634878897298156830e-02 2.545288633862496948e+10
2.661129409214355035e-02 2.548339005538098907e+10
2.687641447144735116e-02 2.530432779353598785e+10
2.714417616594907989e-02 2.512806060117684174e+10
2.741460549028360005e-02 2.495275385008800888e+10
2.768772902125062052e-02 2.498490736603897476e+10
2.796357360042657156e-02 2.481236155247317123e+10
2.824216633680249819e-02 2.464375257613554001e+10
2.852353460944823463e-02 2.447688737963527679e+10
2.880770607020310958e-02 2.450933687105707169e+10
2.909470864639347384e-02 2.434638653774280167e+10
2.938457054357729650e-02 2.418377922824945831e+10
2.967732024831610041e-02 2.402497479233332443e+10
2.997298653097451790e-02 2.405869320215583801e+10
3.027159844854772699e-02 2.390256424964301682e+10
3.057318534751709074e-02 2.374918423761029434e+10
3.087777686673419397e-02 2.359569318255789185e+10
3.118540294033365565e-02 2.344541595963806915e+10
3.149609380067494580e-02 2.348205247195980072e+10
3.180987998131349498e-02 2.333427862733281326e+10
3.212679232000145019e-02 2.318756822234672546e+10
3.244686196171826797e-02 2.304455749199015427e+10
3.277012036173153342e-02 2.290243429039210892e+10
3.309659928868827899e-02 2.276283766621686935e+10
3.342633082773709130e-02 2.280131072984608078e+10
3.375934738368129018e-02 2.266483769043375015e+10
3.409568168416361039e-02 2.252817028295856094e+10
3.443536678288249692e-02 2.239603071321131516e+10
3.477843606284053424e-02 2.226363236248111343e+10
3.512492323962520396e-02 2.213446288785348511e+10
3.547486236472229687e-02 2.200738490615924835e+10
3.582828782886243041e-02 2.188408308954467010e+10
3.618523436540076188e-02 2.176179915366881943e+10
3.654573705373053566e-02 2.164173101636113739e+10
3.690983132273049916e-02 2.152413363460549927e+10
3.727755295424674264e-02 2.140761539322706985e+10
3.764893808660921271e-02 2.129340415577183151e+10
3.802402321818325326e-02 2.118072550119211960e+10
3.840284521095652104e-02 2.122541147466384506e+10
3.878544129416165026e-02 2.111465942570691681e+10
3.917184906793501342e-02 2.100646258161449051e+10
3.956210650701191128e-02 2.074908026861981583e+10
3.995625196445860144e-02 2.064517962321118164e+10
4.035432417544149164e-02 2.054277895240401840e+10
4.075636226103388632e-02 2.044272988316193390e+10
4.116240573206066122e-02 2.034415947933898544e+10
4.157249449298126148e-02 2.024587124815549469e+10
4.198666884581134240e-02 2.015097159902075958e+10
4.240496949408349009e-02 2.005632617688157272e+10
4.282743754684747300e-02 1.996385569775419998e+10
4.325411452271021862e-02 1.987307601405937576e+10
4.368504235391616058e-02 1.978290472896582031e+10
4.412026339046816459e-02 1.969558833403638840e+10
4.455982040428951851e-02 1.960803947618159103e+10
4.500375659342743112e-02 1.939023809510906982e+10
4.545211558629835141e-02 1.930606664654873276e+10
4.590494144597562221e-02 1.922567132047660828e+10
4.636227867451983564e-02 1.914579458981038284e+10
4.682417221735231394e-02 1.906600626514849854e+10
4.729066746767220802e-02 1.886280439293415070e+10
4.776181027091756792e-02 1.878979162937354660e+10
4.823764692927084291e-02 1.871795815063304138e+10
4.871822420620931099e-02 1.864711221238556671e+10
4.920358933110081240e-02 1.845628681321958160e+10
4.969379000384528677e-02 1.838935392023176193e+10
5.018887439956253721e-02 1.832289278026266479e+10
