# Saclay seismic solar model 
#  Primakoff axion flux for g_ag = 1e-10 GeV^{-1} 
#  omega [keV] 	 Flux [keV^{-1} s^{-1} cm^{-2}] 
1.000000000000000021e-03 1.287472886221827919e-03
1.009962701490044103e-03 1.363714099998200287e-03
1.020024658401067841e-03 1.444851301773601802e-03
1.030186859585202055e-03 1.530741314563483293e-03
1.040450303746215301e-03 1.621747073612396116e-03
1.050815999537664525e-03 1.718514702882271896e-03
1.061284965662020628e-03 1.820940134867557935e-03
1.071858230970783050e-03 1.929605150068097958e-03
1.082536834565591809e-03 2.045018650492721763e-03
1.093321825900345906e-03 2.167186773853687059e-03
1.104214264884341087e-03 2.296977411676497972e-03
1.115215221986432187e-03 2.434671085405425150e-03
1.126325778340236299e-03 2.580438273551719473e-03
1.137547025850381768e-03 2.735554893981048761e-03
1.148880067299816454e-03 2.899900625872513498e-03
1.160326016458186312e-03 3.074080993527603806e-03
1.171885998191291240e-03 3.259409037239408176e-03
1.183561148571633586e-03 3.455654290216290513e-03
1.195352614990066471e-03 3.664088638297033958e-03
1.207261556268556012e-03 3.885474977809278297e-03
1.219289142774065710e-03 4.119930266504402694e-03
1.231436556533575550e-03 4.369562194279310099e-03
1.243704991350247325e-03 4.634171847246420888e-03
1.256095652920747674e-03 4.914955234938673916e-03
1.268609758953739234e-03 5.213686571482018320e-03
1.281248539289552056e-03 5.530153932740547451e-03
1.294013236021048950e-03 5.867020438125798362e-03
1.306905103615692764e-03 6.224474770970162517e-03
1.319925409038831023e-03 6.603852440167658731e-03
1.333075431878209165e-03 7.007724615364579503e-03
1.346356464469723475e-03 7.435704788637411029e-03
1.359769812024426471e-03 7.891607259453524773e-03
1.373316792756799302e-03 8.375392629539074249e-03
1.386998738014300027e-03 8.889418378443435936e-03
1.400816992408204266e-03 9.436462280894392443e-03
1.414772913945748630e-03 1.001633886393300983e-02
1.428867874163589936e-03 1.063507386428639255e-02
1.443103258262595605e-03 1.129109610771892799e-02
1.457480465243975870e-03 1.198954048807999474e-02
1.472000908046772324e-03 1.273191988956740191e-02
1.486666013686716243e-03 1.352061761463111203e-02
1.501477223396470786e-03 1.436097057853155494e-02
1.516435992767270089e-03 1.525214743019254887e-02
1.531543791891969110e-03 1.620361362711810610e-02
1.546802105509518990e-03 1.721298233870533975e-02
1.562212433150882021e-03 1.828891339848623052e-02
1.577776289286399658e-03 1.943257409247875836e-02
1.593495203474629618e-03 2.064983212584377975e-02
1.609370720512664447e-03 2.194609133307056856e-02
1.625404400587949312e-03 2.332393570847470995e-02
1.641597819431610955e-03 2.479369877036983333e-02
1.657952568473315593e-03 2.635413812442305437e-02
1.674470254997667031e-03 2.802123367235214921e-02
1.691152502302166894e-03 2.979059144752277746e-02
1.708000949856744357e-03 3.168096158194336903e-02
1.725017253464878990e-03 3.368889460340792480e-02
1.742203085426325196e-03 3.583246251755504985e-02
1.759560134701461647e-03 3.811191344084566279e-02
1.777090107077273964e-03 4.054368086635279367e-02
1.794794725334995355e-03 4.313213962660834150e-02
1.812675729419413679e-03 4.589190834070676350e-02
1.830734876609867254e-03 4.883213108920031464e-02
1.848973941692944175e-03 5.196541628672217417e-02
1.867394717136901163e-03 5.530616633856938469e-02
1.885999013267821269e-03 5.886470420859091224e-02
1.904788658447526461e-03 6.266143980732979957e-02
1.923765499253260718e-03 6.670418799690540357e-02
1.942931400659166606e-03 7.102024554961307301e-02
1.962288246219567271e-03 7.561455116884284455e-02
1.981837938254074876e-03 8.052198821592281008e-02
2.001582398034544574e-03 8.574441031457658013e-02
2.021523565973889613e-03 9.132548613656760184e-02
2.041663401816776885e-03 9.726389689693676344e-02
2.062003884832225471e-03 1.036125957113690071e-01
2.082547014008119882e-03 1.103672026550775592e-01
2.103294808247665754e-03 1.175906733389487785e-01
2.124249306567796685e-03 1.252760324076826470e-01
2.145412568299564712e-03 1.334965028611675431e-01
2.166786673290522266e-03 1.422431309952980061e-01
2.188373722109121598e-03 1.515999656121457262e-01
2.210175836251151212e-03 1.615573085515147889e-01
2.232195158348230114e-03 1.722097947578538069e-01
2.254433852378375045e-03 1.835483226764456910e-01
2.276894103878671083e-03 1.956777883870011447e-01
2.299578120160055989e-03 2.085917053315876069e-01
2.322488130524247383e-03 2.224049576864415845e-01
2.345626386482830943e-03 2.371159525765532405e-01
2.368995161978530023e-03 2.528488959130399394e-01
2.392596753608680973e-03 2.696102693416674301e-01
2.416433480850932805e-03 2.875317453287024594e-01
2.440507686291198963e-03 3.066314076363432783e-01
2.464821735853876383e-03 3.270475508516924035e-01
2.489378019034360883e-03 3.488140801902902544e-01
2.514178949133877555e-03 3.720742309423653027e-01
2.539226963496650849e-03 3.968838235999005981e-01
2.564524523749439101e-03 4.233868589315449293e-01
2.590074116043452560e-03 4.516683914623628171e-01
2.615878251298683118e-03 4.818680459447046149e-01
2.641939465450670460e-03 5.141091249087871295e-01
2.668260319699722414e-03 5.485222960597667674e-01
2.694843400762620290e-03 5.852792252847578425e-01
2.721691321126833499e-03 6.244955750777942960e-01
2.748806719307263832e-03 6.664047865809782367e-01
2.776192260105549755e-03 7.110970401132967744e-01
2.803850634871951977e-03 7.588859492224599990e-01
2.831784561769851941e-03 8.098220415871597577e-01
2.859996786042880157e-03 8.643230297329476119e-01
2.888490080284711239e-03 9.223793188349724836e-01
2.917267244711541259e-03 9.845421251901365078e-01
2.946331107437285581e-03 1.050714906835200635e+00
2.975684524751514518e-03 1.121616647665808930e+00
3.005330381400157617e-03 1.197061017470523181e+00
3.035271590869007777e-03 1.277908106481767891e+00
3.065511095670049938e-03 1.363962174828035057e+00
3.096051867630625603e-03 1.456110058059662427e+00
3.126896908185526451e-03 1.554267838425630988e+00
3.158049248671917272e-03 1.659295326288264372e+00
3.189511950627296841e-03 1.771264536158636105e+00
3.221288106090321526e-03 1.890970644095352204e+00
3.253380837904732304e-03 2.018691813325141471e+00
3.285793300026203494e-03 2.155119572923597904e+00
3.318528677832354758e-03 2.300799508325293452e+00
3.351590188435745951e-03 2.456274989304203071e+00
3.384981081000095100e-03 2.622430300015094584e+00
3.418704637059542546e-03 2.799601501703495643e+00
3.452764170841199787e-03 2.989104051857453204e+00
3.487163029590806956e-03 3.190988666631438875e+00
3.521904593901741334e-03 3.407116224348234912e+00
3.556992278047195651e-03 3.637144883549589647e+00
3.592429530315775516e-03 3.883618971962765176e+00
3.628219833350327349e-03 4.145900653832692129e+00
3.664366704490257861e-03 4.426755760069596590e+00
3.700873696117147355e-03 4.725860818782716244e+00
3.737744396003922238e-03 5.045808893500516312e+00
3.774982427667390728e-03 5.386898375675127859e+00
3.812591450724407173e-03 5.751352548304257795e+00
3.850575161251464616e-03 6.140296042462374260e+00
3.888937292147995328e-03 6.555402996571410235e+00
3.927681613503162042e-03 6.998872918865136405e+00
3.966811932966433051e-03 7.471618940502034789e+00
4.006332096121718693e-03 7.977218566830684310e+00
4.046245986865365865e-03 8.515547910827983458e+00
4.086557527787790245e-03 9.091939264639306018e+00
4.127270680559036800e-03 9.705263658173128860e+00
4.168389446318053471e-03 1.036190349385902465e+01
4.209917866065974665e-03 1.106103447645762472e+01
4.251860021063189055e-03 1.180853223838276023e+01
4.294220033230498716e-03 1.260538157072025989e+01
4.337002065554137163e-03 1.345619079717070932e+01
4.380210322494961991e-03 1.436432740056296709e+01
4.423849050401584479e-03 1.533258693594568989e+01
4.467922537927755330e-03 1.636740265620019841e+01
4.512435116453764571e-03 1.746913198844188742e+01
4.557391160512191258e-03 1.864811251283516569e+01
4.602795088217735003e-03 1.990238779883256726e+01
4.648651361701493581e-03 2.124451081531289987e+01
4.694964487549408219e-03 2.267332617695065267e+01
4.741739017245226104e-03 2.419980391909771811e+01
4.788979547617730308e-03 2.582720846809571569e+01
4.836690721292577141e-03 2.756305466186599418e+01
4.884877227148475519e-03 2.941641838559815270e+01
4.933543800778075229e-03 3.139000834317377908e+01
4.982695224953284825e-03 3.350039554578477663e+01
5.032336330095362603e-03 3.574521395981897598e+01
5.082471994749607203e-03 3.814646197704661290e+01
5.133107146064806552e-03 4.070216575852879259e+01
5.184246760277462507e-03 4.343092961309982769e+01
5.235895863200834555e-03 4.634003615058485792e+01
5.288059530718861555e-03 4.944032549617318040e+01
5.340742889284996221e-03 5.275110688813936122e+01
5.393951116426018259e-03 5.627273225872343687e+01
5.447689441250860853e-03 6.003999161943401930e+01
5.501963144964508619e-03 6.404659708135741880e+01
5.556777561387013856e-03 6.832507207588436415e+01
5.612138077477688350e-03 7.288313045191830497e+01
5.668050133864508018e-03 7.774023472561151493e+01
5.724519225378804990e-03 8.292445780290050550e+01
5.781550901595272282e-03 8.843703764463623429e+01
5.839150767377361724e-03 9.433214671504410376e+01
5.897324483428103767e-03 1.006006271959141429e+02
5.956077766846426362e-03 1.072890942750010481e+02
6.015416391689005875e-03 1.144157429999235092e+02
6.075346189537722021e-03 1.220020472044433006e+02
6.135873050072762798e-03 1.301022460586950729e+02
6.197002921651444465e-03 1.387138180906111131e+02
6.258741811892789067e-03 1.479087083006778016e+02
6.321095788267934966e-03 1.576941190175600411e+02
6.384070978696422885e-03 1.681159236442862834e+02
6.447673572148429448e-03 1.792321544235174713e+02
6.511909819252990721e-03 1.910479834538170962e+02
6.576786032912294681e-03 2.036654595866961586e+02
6.642308588922091195e-03 2.170844152677305487e+02
6.708483926598278468e-03 2.313747244867998063e+02
6.775318549409736248e-03 2.466098410207200970e+02
6.842819025617463864e-03 2.628010218128984548e+02
6.910991988920084719e-03 2.800816179614603243e+02
6.979844139105782254e-03 2.984590039753441602e+02
7.049382242710726387e-03 3.180152639164206789e+02
7.119613133684071088e-03 3.388673220522101133e+02
7.190543714059562976e-03 3.610243426021537516e+02
7.262180954633852027e-03 3.846433082587354306e+02
7.334531895651552093e-03 4.097755843302815606e+02
7.407603647497136221e-03 4.364821923706163602e+02
7.481403391393711896e-03 4.649794599454926356e+02
7.555938380108770738e-03 4.952550181519977741e+02
7.631215938666962087e-03 5.274669167285100002e+02
7.707243465069967686e-03 5.617828270164841342e+02
7.784028431023552914e-03 5.982340748655744846e+02
7.861578382671857018e-03 6.370529604815534412e+02
7.939900941338999540e-03 6.783524648057970126e+02
8.019003804278080141e-03 7.222152824246088585e+02
8.098894745427631658e-03 7.689556963629443089e+02
8.179581616175614009e-03 8.186321562752569889e+02
8.261072346131024396e-03 8.713834743632260142e+02
8.343374943903185403e-03 9.276110343761437207e+02
8.426497497888806379e-03 9.873268195095358806e+02
8.510448177066875369e-03 1.050736173134030196e+03
8.595235231801483938e-03 1.118306458013908468e+03
8.680866994652631716e-03 1.190046237467247238e+03
8.767351881195132104e-03 1.266208818795334309e+03
8.854698390845655576e-03 1.347346594317204790e+03
8.942915107698025043e-03 1.433477756829408690e+03
9.032010701366825767e-03 1.524899072215723891e+03
9.121993927839426933e-03 1.622234430052960079e+03
9.212873630336486028e-03 1.725573629662722169e+03
9.304658740181027954e-03 1.835242870084007336e+03
9.397358277676180413e-03 1.951885797494713870e+03
9.490981352991664441e-03 2.075783980745286499e+03
9.585537167059093866e-03 2.207251195150923195e+03
9.681035012476227677e-03 2.346889045804166926e+03
9.777484274420192648e-03 2.495328973446028613e+03
9.874894431569842743e-03 2.652812954059023923e+03
9.973275057037270935e-03 2.819875135719305035e+03
1.007263581930863648e-02 2.997512449829652724e+03
1.017298648319433368e-02 3.186012786045212124e+03
1.027433691078865306e-02 3.385941766737631497e+03
1.037669706243898177e-02 3.598068339765198743e+03
1.048007699772467854e-02 3.823502313784743365e+03
1.058448687644568745e-02 4.062558853921685113e+03
1.068993695962100476e-02 4.316037264106354087e+03
1.079643761049709980e-02 4.584952627699979530e+03
1.090399929556636581e-02 4.870539257397234906e+03
1.101263258559574514e-02 5.173294357253713315e+03
1.112234815666556832e-02 5.494218634482214838e+03
1.123315679121877041e-02 5.834418826761169839e+03
1.134506937912054328e-02 6.195677084098457271e+03
1.145809691872856119e-02 6.578530952916280512e+03
1.157225051797384878e-02 6.984234286994846116e+03
1.168754139545243043e-02 7.414036718317012856e+03
1.180398088152785629e-02 7.869777262681391221e+03
1.192158041944470573e-02 8.352866714439649513e+03
1.204035156645318939e-02 8.863487620354017054e+03
1.216030599494494734e-02 9.403061190348775199e+03
1.228145549360017651e-02 9.974125775713824623e+03
1.240381196854617799e-02 1.057645303774113745e+04
1.252738744452744010e-02 1.121230151460487104e+04
1.265219406608739279e-02 1.188340622017265014e+04
1.277824409876192856e-02 1.258995154340087356e+04
1.290554993028481152e-02 1.333617069995543716e+04
1.303412407180509769e-02 1.412097110455058828e+04
1.316397915911669131e-02 1.494827965671582569e+04
1.329512795390013283e-02 1.581852108438695177e+04
1.342758334497677966e-02 1.673437310757219166e+04
1.356135834957547179e-02 1.769777557769024133e+04
1.369646611461180878e-02 1.871028042958288279e+04
1.383291991798019094e-02 1.977517721974670712e+04
1.397073316985871297e-02 2.089306937394370470e+04
1.410991941402707332e-02 2.206840704869665205e+04
1.425049232919760323e-02 2.330107671857054811e+04
1.439246573035956114e-02 2.459653511293162592e+04
1.453585357013682279e-02 2.595416948100938680e+04
1.468066994015908809e-02 2.738036487989402667e+04
1.482692907244675777e-02 2.887400862345494897e+04
1.497464534080960100e-02 3.044243755242399857e+04
1.512383326225936672e-02 3.208399757226174188e+04
1.527450749843645671e-02 3.380705847749489476e+04
1.542668285705081806e-02 3.560937422859937215e+04
1.558037429333719755e-02 3.750046376941157359e+04
1.573559691152487047e-02 3.947755667110693321e+04
1.589236596632205567e-02 4.155097178070116206e+04
1.605069686441505661e-02 4.371803702423469076e+04
1.621060516598241130e-02 4.598913239253424399e+04
1.637210658622405973e-02 4.836240241116445395e+04
1.653521699690579591e-02 5.084789689113105123e+04
1.669995242791907225e-02 5.344488720398573787e+04
1.686632906885636787e-02 5.616278795340227953e+04
1.703436327060223535e-02 5.900239064066007268e+04
1.720407154694021667e-02 6.197208379848316690e+04
1.737547057617574303e-02 6.507466315556588961e+04
1.754857720277522987e-02 6.831701305119704921e+04
1.772340843902147148e-02 7.170451762758196855e+04
1.789998146668557097e-02 7.524197042793661240e+04
1.807831363871548191e-02 7.893803376071673119e+04
1.825842248094139419e-02 8.279472794080027961e+04
1.844032569379812359e-02 8.682479644986658241e+04
1.862404115406462654e-02 9.102689424692334433e+04
1.880958691662086915e-02 9.541813462736403744e+04
1.899698121622220293e-02 9.999590794916400046e+04
1.918624246929139660e-02 1.047753916668543679e+05
1.937738927572855638e-02 1.097594004618544714e+05
1.957044042073902146e-02 1.149582038863358030e+05
1.976541487667953650e-02 1.203813034603893175e+05
1.996233180492277062e-02 1.260327941553720157e+05
2.016121055774042908e-02 1.319303009110830899e+05
2.036207068020512434e-02 1.380730248718255607e+05
2.056493191211118676e-02 1.444801811089677794e+05
2.076981418991463366e-02 1.511551804771769093e+05
2.097673764869243535e-02 1.581101851271996857e+05
2.118572262412132465e-02 1.653597531247898587e+05
2.139678965447631975e-02 1.729068392333751544e+05
2.160995948264913397e-02 1.807749261227505340e+05
2.182525305818671518e-02 1.889658536338186823e+05
2.204269153935009898e-02 1.974953203595713421e+05
2.226229629519376613e-02 2.063806218767536338e+05
2.248408890766569537e-02 2.156261549750046688e+05
2.270809117372838207e-02 2.252563296956991544e+05
2.293432510750094064e-02 2.352789951609053824e+05
2.316281294242259620e-02 2.457057523602126457e+05
2.339357713343768325e-02 2.565658163243317977e+05
2.362664035920244640e-02 2.678611493903147057e+05
2.386202552431380616e-02 2.796118549118686933e+05
2.409975576156037080e-02 2.918432648634382640e+05
2.433985443419576719e-02 3.045616736234810087e+05
2.458234513823478670e-02 3.177904865319201490e+05
2.482725170477225601e-02 3.315545457868346130e+05
2.507459820232509073e-02 3.458631158462259918e+05
2.532440893919765332e-02 3.607409250290195341e+05
2.557670846587068239e-02 3.762167490158550208e+05
2.583152157741403637e-02 3.923009859975374420e+05
2.608887331592344566e-02 4.090171094089759281e+05
2.634878897298156830e-02 4.264034642528641270e+05
2.661129409214355035e-02 4.444691751494341879e+05
2.687641447144735116e-02 4.632394214563439018e+05
2.714417616594907989e-02 4.827505366441251826e+05
2.741460549028360005e-02 5.030259498065679800e+05
2.768772902125062052e-02 5.240874416858976474e+05
2.796357360042657156e-02 5.459639893149712589e+05
2.824216633680249819e-02 5.687006949891742552e+05
2.852353460944823463e-02 5.923152873159773881e+05
2.880770607020310958e-02 6.168385165893363301e+05
2.909470864639347384e-02 6.423036668802163331e+05
2.938457054357729650e-02 6.687586409388454631e+05
2.967732024831610041e-02 6.962286022239689482e+05
2.997298653097451790e-02 7.247477635830375366e+05
3.027159844854772699e-02 7.543543089906526729e+05
3.057318534751709074e-02 7.850906881174417213e+05
3.087777686673419397e-02 8.170072983562140726e+05
3.118540294033365565e-02 8.501341331401066855e+05
3.149609380067494580e-02 8.845149386255809804e+05
3.180987998131349498e-02 9.201949789568410488e+05
3.212679232000145019e-02 9.572210765909977490e+05
3.244686196171826797e-02 9.956498069270772394e+05
3.277012036173153342e-02 1.035528544989765156e+06
3.309659928868827899e-02 1.076903576729140710e+06
3.342633082773709130e-02 1.119828448037149617e+06
3.375934738368129018e-02 1.164358542985211825e+06
3.409568168416361039e-02 1.210551135347624542e+06
3.443536678288249692e-02 1.258465436596494401e+06
3.477843606284053424e-02 1.308162668410054641e+06
3.512492323962520396e-02 1.359712977083967766e+06
3.547486236472229687e-02 1.413177204032051377e+06
3.582828782886243041e-02 1.468620201975833392e+06
3.618523436540076188e-02 1.526111860062301857e+06
3.654573705373053566e-02 1.585724427187719382e+06
3.690983132273049916e-02 1.647532565612934995e+06
3.727755295424674264e-02 1.711613453451005742e+06
3.764893808660921271e-02 1.778046843043114757e+06
3.802402321818325326e-02 1.846915143304547993e+06
3.840284521095652104e-02 1.918303511621583952e+06
3.878544129416165026e-02 1.992299944239820121e+06
3.917184906793501342e-02 2.068995336812720867e+06
3.956210650701191128e-02 2.148483617345056962e+06
3.995625196445860144e-02 2.230861796758640558e+06
4.035432417544149164e-02 2.316230085050619207e+06
4.075636226103388632e-02 2.404691980424002744e+06
4.116240573206066122e-02 2.496354390146191698e+06
4.157249449298126148e-02 2.591327704408308025e+06
4.198666884581134240e-02 2.689725945007036440e+06
4.240496949408349009e-02 2.791666836387998890e+06
4.282743754684747300e-02 2.897271944704966620e+06
4.325411452271021862e-02 3.006682257896774914e+06
4.368504235391616058e-02 3.120015490873700008e+06
4.412026339046816459e-02 3.237404276253078599e+06
4.455982040428951851e-02 3.358986850386502687e+06
4.500375659342743112e-02 3.484905895362417679e+06
4.545211558629835141e-02 3.615308700916341972e+06
4.590494144597562221e-02 3.750347264563059900e+06
4.636227867451983564e-02 3.890206680388241541e+06
4.682417221735231394e-02 4.035028551901398692e+06
4.729066746767220802e-02 4.184975454771604855e+06
4.776181027091756792e-02 4.340219975916006602e+06
4.823764692927084291e-02 4.500943346109254286e+06
4.871822420620931099e-02 4.667370739519632421e+06
4.920358933110081240e-02 4.839651326031535864e+06
4.969379000384528677e-02 5.017980879565613344e+06
5.018887439956253721e-02 5.202575791868463159e+06
5.068889117332669308e-02 5.393677501264616847e+06
