# Saclay seismic solar model 
#  R [R_sol] 	 M [M_sol] 	 T [keV] 	 rho [g cm^-3] 	 ne [cm^-3] 	 Plasma freq. [keV] 	 Debye Screening length [keV]
0.000000000000000000e+00 0.000000000000000000e+00 1.355802958376812972e+00 1.529376000000000033e+02 6.119184000000000123e+25 2.904561400687769579e-01 8.611310736243432018e+00
7.269653000000000052e-03 4.161292999999999801e-05 1.354210475189995266e+00 1.523077000000000112e+02 6.101400999999999967e+25 2.900337847642638911e-01 8.602337494370082993e+00
1.028925999999999973e-02 1.176952999999999978e-04 1.352617992003177783e+00 1.516769999999999925e+02 6.083632000000000008e+25 2.896111467515566362e-01 8.593056779338322571e+00
1.261204999999999965e-02 2.162130000000000117e-04 1.351027232283012580e+00 1.510490000000000066e+02 6.065918000000000208e+25 2.891892021186829309e-01 8.583690994908058869e+00
1.457509000000000061e-02 3.328711000000000256e-04 1.349438196029499659e+00 1.504242999999999881e+02 6.048265999999999807e+25 2.887681210090003447e-01 8.574314467626289016e+00
1.630882000000000165e-02 4.651866999999999959e-04 1.347850021509313212e+00 1.498029999999999973e+02 6.030678000000000061e+25 2.883479550191033192e-01 8.564933420890316285e+00
1.788005999999999970e-02 6.114843999999999488e-04 1.346263570455778824e+00 1.491852000000000089e+02 6.013154999999999878e+25 2.879287320967851560e-01 8.555548849935199485e+00
1.932851000000000014e-02 7.705337999999999510e-04 1.344677981135570910e+00 1.485708999999999946e+02 5.995697000000000118e+25 2.875104563673449576e-01 8.546176723585105606e+00
2.067996000000000070e-02 9.413816000000000198e-04 1.343094115282015277e+00 1.479602999999999895e+02 5.978304999999999691e+25 2.870931559820265599e-01 8.536831116140687570e+00
2.195236000000000062e-02 1.123260999999999964e-03 1.341511111161785896e+00 1.473533999999999935e+02 5.960979000000000315e+25 2.866768352001012876e-01 8.527517381458739720e+00
2.315874000000000058e-02 1.315535999999999962e-03 1.339929830508208797e+00 1.467500000000000000e+02 5.943719000000000271e+25 2.862614982955904996e-01 8.518228024579464375e+00
2.430892999999999943e-02 1.517670000000000043e-03 1.338350273321284201e+00 1.461502999999999872e+02 5.926523999999999791e+25 2.858471254413099127e-01 8.508962690829003250e+00
2.541057000000000038e-02 1.729202999999999903e-03 1.336771577867685856e+00 1.455540000000000020e+02 5.909392999999999966e+25 2.854336966850367086e-01 8.499716703869648171e+00
2.646971999999999867e-02 1.949730999999999903e-03 1.335194605880739793e+00 1.449612999999999943e+02 5.892325999999999936e+25 2.850212161350679785e-01 8.490490374441282739e+00
2.749131000000000144e-02 2.178900000000000108e-03 1.333619357360446234e+00 1.443720000000000141e+02 5.875321999999999932e+25 2.846096636932965995e-01 8.481280567780761004e+00
2.847935999999999870e-02 2.416391999999999846e-03 1.332044970573478926e+00 1.437861000000000047e+02 5.858380000000000186e+25 2.841990191359728968e-01 8.472090606706426996e+00
2.943727000000000149e-02 2.661923999999999974e-03 1.330472307253163899e+00 1.432036999999999978e+02 5.841502000000000236e+25 2.837893349858108261e-01 8.462920472765024016e+00
3.036787999999999987e-02 2.915239000000000025e-03 1.328900505666175125e+00 1.426246999999999900e+02 5.824684999999999916e+25 2.833805424307331844e-01 8.453771935874765830e+00
3.127365000000000006e-02 3.176102999999999999e-03 1.327331289279164883e+00 1.420490000000000066e+02 5.807929999999999855e+25 2.829726696957213239e-01 8.444637892658670708e+00
3.215665999999999664e-02 3.444299999999999966e-03 1.325762934625480893e+00 1.414765999999999906e+02 5.791236000000000282e+25 2.825656963679759603e-01 8.435525322567302808e+00
3.301874999999999949e-02 3.719635000000000215e-03 1.324195441705123155e+00 1.409076000000000022e+02 5.774601999999999713e+25 2.821596019081955564e-01 8.426436365050754773e+00
3.386153000000000080e-02 4.001923999999999586e-03 1.322629672251417698e+00 1.403418000000000063e+02 5.758028999999999633e+25 2.817544145827564073e-01 8.417365151002476509e+00
3.468638999999999750e-02 4.290997999999999861e-03 1.321065626264364745e+00 1.397793000000000063e+02 5.741516000000000274e+25 2.813501138095185206e-01 8.408312717652519197e+00
3.549458999999999947e-02 4.586701000000000319e-03 1.319503303743964073e+00 1.392199999999999989e+02 5.725062999999999917e+25 2.809467034159025545e-01 8.399278887171870878e+00
3.628725000000000006e-02 4.888883000000000117e-03 1.317941842956889653e+00 1.386639000000000124e+02 5.708667999999999885e+25 2.805441380993576872e-01 8.390265160898731978e+00
3.706535999999999859e-02 5.197409000000000057e-03 1.316382105636467736e+00 1.381109999999999900e+02 5.692331999999999947e+25 2.801424461100199825e-01 8.381269677171172106e+00
3.782983000000000179e-02 5.512147000000000227e-03 1.314824091782698101e+00 1.375612000000000137e+02 5.676055000000000101e+25 2.797416312100238223e-01 8.372292932794904274e+00
3.858145999999999798e-02 5.832976000000000133e-03 1.313267801395580969e+00 1.370146000000000015e+02 5.659834999999999952e+25 2.793416478197756070e-01 8.363335173952091139e+00
3.932101000000000346e-02 6.159780999999999590e-03 1.311712372741789867e+00 1.364710000000000036e+02 5.643672000000000359e+25 2.789424995162499976e-01 8.354396474286575724e+00
4.004913000000000223e-02 6.492450999999999778e-03 1.310158667554651268e+00 1.359304999999999950e+02 5.627567000000000232e+25 2.785442146376280181e-01 8.345476664335025774e+00
4.076644000000000101e-02 6.830885000000000082e-03 1.308605824100838921e+00 1.353931000000000040e+02 5.611518000000000033e+25 2.781467473258757983e-01 8.336578222639346336e+00
4.147350999999999815e-02 7.174983000000000229e-03 1.307055565847005107e+00 1.348585999999999956e+02 5.595526000000000390e+25 2.777501259098170694e-01 8.327692409803775675e+00
4.217085999999999751e-02 7.524651999999999730e-03 1.305506169326497545e+00 1.343272000000000048e+02 5.579589000000000048e+25 2.773543043096577954e-01 8.318828871339325914e+00
4.285894999999999982e-02 7.879801999999999987e-03 1.303957634539316013e+00 1.337986999999999966e+02 5.563707999999999634e+25 2.769593108444290408e-01 8.309983690775096576e+00
4.353822999999999721e-02 8.240348999999999244e-03 1.302411684952113236e+00 1.332732000000000028e+02 5.547882000000000238e+25 2.765651241370978286e-01 8.301154580881609846e+00
4.420911000000000285e-02 8.606211000000000763e-03 1.300866597098236710e+00 1.327505999999999915e+02 5.532110000000000375e+25 2.761717226813867332e-01 8.292344102925239824e+00
4.487196999999999714e-02 8.977310999999999971e-03 1.299323232711012466e+00 1.322308999999999912e+02 5.516392999999999812e+25 2.757791348341307458e-01 8.283551778712512359e+00
4.552715999999999708e-02 9.353573000000000442e-03 1.297780730057114473e+00 1.317139999999999986e+02 5.500729999999999640e+25 2.753873390430426338e-01 8.274777996607088681e+00
4.617501000000000244e-02 9.734925000000000175e-03 1.296240812603195014e+00 1.311999999999999886e+02 5.485120999999999859e+25 2.749963386935232457e-01 8.266019068871290898e+00
4.681580999999999937e-02 1.012129999999999974e-02 1.294701756882601806e+00 1.306888999999999896e+02 5.469564999999999842e+25 2.746061120802595901e-01 8.257281461391727362e+00
4.744987999999999984e-02 1.051263000000000024e-02 1.293164424628661102e+00 1.301804999999999950e+02 5.454060999999999819e+25 2.742166373677129565e-01 8.248558883208584547e+00
4.807746000000000242e-02 1.090884999999999945e-02 1.291627954108046428e+00 1.296749000000000080e+02 5.438610000000000419e+25 2.738279429386881181e-01 8.239856182830266107e+00
4.869881000000000210e-02 1.130989999999999947e-02 1.290094068787410508e+00 1.291721000000000004e+02 5.423211999999999923e+25 2.734400321206991169e-01 8.231169065986996713e+00
4.931417999999999913e-02 1.171573000000000059e-02 1.288561045200100619e+00 1.286719999999999970e+02 5.407864999999999653e+25 2.730528577616425645e-01 8.222499994493270847e+00
4.992376999999999926e-02 1.212626999999999976e-02 1.287028883346117203e+00 1.281745999999999981e+02 5.392571000000000006e+25 2.726664735620948354e-01 8.213849876579333298e+00
5.052780999999999939e-02 1.254146000000000080e-02 1.285499306692112098e+00 1.276799000000000035e+02 5.377326999999999957e+25 2.722808069334695658e-01 8.205212766573227512e+00
5.112649999999999834e-02 1.296126000000000049e-02 1.283970591771433245e+00 1.271877999999999957e+02 5.362134999999999903e+25 2.718959116359065953e-01 8.196593579053297773e+00
5.172000999999999682e-02 1.338562000000000085e-02 1.282443600317406895e+00 1.266984999999999957e+02 5.346993000000000306e+25 2.715117401713306733e-01 8.187993133953629155e+00
5.230852999999999892e-02 1.381448000000000051e-02 1.280917470596706798e+00 1.262116999999999933e+02 5.331901000000000308e+25 2.711282956166170544e-01 8.179408940396225347e+00
5.289222999999999841e-02 1.424778999999999976e-02 1.279393926075985011e+00 1.257275999999999954e+02 5.316859999999999677e+25 2.707456065212776597e-01 8.170841560041479212e+00
5.347125999999999962e-02 1.468551000000000058e-02 1.277871243288589698e+00 1.252459999999999951e+02 5.301867999999999735e+25 2.703636250992542678e-01 8.162291365814377642e+00
5.404578000000000160e-02 1.512758999999999979e-02 1.276350283967846666e+00 1.247669999999999959e+02 5.286924999999999623e+25 2.699823543542771431e-01 8.153757279382237044e+00
5.461593000000000003e-02 1.557398999999999936e-02 1.274830186380429886e+00 1.242904999999999944e+02 5.272031000000000199e+25 2.696017973014638858e-01 8.145241589709016239e+00
5.518184999999999757e-02 1.602465999999999960e-02 1.273312673992991639e+00 1.238165999999999940e+02 5.257185999999999747e+25 2.692219569673199309e-01 8.136739966317927397e+00
5.574367000000000211e-02 1.647956999999999894e-02 1.271796023338879644e+00 1.233452000000000055e+02 5.242389000000000215e+25 2.688428107484908680e-01 8.128256094596613579e+00
5.630150999999999906e-02 1.693866000000000122e-02 1.270280234418093901e+00 1.228761999999999972e+02 5.227640999999999653e+25 2.684643872632216377e-01 8.119789949573283039e+00
5.685550000000000326e-02 1.740190999999999960e-02 1.268767030697286691e+00 1.224097000000000008e+02 5.212938999999999616e+25 2.680866124313635024e-01 8.111335513409835940e+00
5.740573999999999677e-02 1.786926999999999960e-02 1.267254688709805732e+00 1.219455999999999989e+02 5.198284999999999640e+25 2.677095404985274096e-01 8.102898512375261930e+00
5.795233999999999802e-02 1.834070999999999965e-02 1.265744070188977055e+00 1.214839000000000055e+02 5.183677999999999956e+25 2.673331486529709200e-01 8.094474055941818236e+00
5.849541999999999936e-02 1.881617999999999832e-02 1.264236036868127133e+00 1.210246000000000066e+02 5.169115000000000400e+25 2.669573623042949539e-01 8.086062667941979143e+00
5.903506000000000031e-02 1.929565999999999920e-02 1.262729727013929493e+00 1.205675999999999988e+02 5.154595000000000344e+25 2.665821581544173813e-01 8.077667031638251061e+00
5.957135999999999681e-02 1.977910000000000085e-02 1.261225140626384356e+00 1.201129999999999995e+02 5.140121999999999722e+25 2.662076422453668045e-01 8.069285406891301804e+00
6.010441999999999868e-02 2.026647999999999991e-02 1.259721415972165248e+00 1.196607000000000056e+02 5.125694999999999624e+25 2.658337915545098129e-01 8.060919954494959683e+00
6.063430999999999682e-02 2.075776000000000010e-02 1.258220276517924896e+00 1.192107000000000028e+02 5.111313000000000281e+25 2.654605829244024995e-01 8.052565034877989802e+00
6.116113000000000105e-02 2.125290000000000165e-02 1.256719998797010795e+00 1.187630000000000052e+02 5.096975999999999976e+25 2.650880190668529202e-01 8.044227376026221066e+00
6.168495999999999702e-02 2.175188000000000121e-02 1.255220582809422725e+00 1.183175999999999988e+02 5.082684000000000426e+25 2.647161027042376213e-01 8.035906898557461986e+00
6.220587000000000338e-02 2.225467000000000070e-02 1.253723752021813187e+00 1.178744999999999976e+02 5.068436999999999913e+25 2.643448365695089675e-01 8.027598351733724158e+00
6.272392999999999719e-02 2.276123000000000035e-02 1.252227782967530123e+00 1.174337000000000018e+02 5.054235000000000155e+25 2.639742234062030235e-01 8.019308021106752449e+00
6.323921999999999877e-02 2.327152999999999861e-02 1.250733537379899341e+00 1.169950000000000045e+02 5.040075999999999898e+25 2.636042136668164670e-01 8.011029087939618876e+00
6.375181000000000597e-02 2.378554999999999905e-02 1.249240153525594588e+00 1.165585999999999984e+02 5.025962000000000396e+25 2.632348622709402841e-01 8.002769024054938285e+00
6.426176000000000110e-02 2.430326000000000014e-02 1.247749354871268590e+00 1.161243999999999943e+02 5.011891000000000394e+25 2.628661195451902910e-01 7.994519925207847599e+00
6.476914000000000282e-02 2.482463000000000031e-02 1.246259417950268844e+00 1.156924000000000063e+02 4.997863999999999661e+25 2.624980143156668277e-01 7.986287947544635557e+00
6.527399999999999869e-02 2.534961999999999979e-02 1.244770342762595350e+00 1.152625000000000028e+02 4.983880000000000146e+25 2.621305229702081685e-01 7.978071232621011255e+00
6.577642000000000211e-02 2.587822000000000039e-02 1.243282991041574137e+00 1.148348000000000013e+02 4.969938000000000362e+25 2.617636217596239212e-01 7.969869248247437810e+00
6.627644000000000590e-02 2.641040000000000054e-02 1.241797362787205206e+00 1.144091999999999985e+02 4.956039999999999847e+25 2.613973659120772952e-01 7.961680619661095193e+00
6.677412000000000625e-02 2.694614000000000037e-02 1.240313457999489000e+00 1.139856999999999942e+02 4.942183999999999922e+25 2.610317053270411192e-01 7.953505161653303013e+00
6.726951000000000458e-02 2.748540000000000011e-02 1.238830414945098601e+00 1.135644000000000062e+02 4.928368999999999961e+25 2.606666160640762619e-01 7.945347381509141549e+00
6.776266999999999707e-02 2.802815999999999988e-02 1.237349095357360929e+00 1.131450999999999993e+02 4.914597000000000358e+25 2.603021534922347335e-01 7.937201467359721541e+00
6.825364000000000431e-02 2.857439999999999980e-02 1.235869499236275537e+00 1.127279000000000053e+02 4.900866999999999628e+25 2.599382937279675065e-01 7.929069656488088924e+00
6.874247999999999470e-02 2.912408999999999831e-02 1.234390764848516397e+00 1.123127000000000066e+02 4.887176999999999951e+25 2.595749861927580948e-01 7.920952729886368893e+00
6.922923000000000271e-02 2.967722000000000068e-02 1.232913753927409539e+00 1.118996000000000066e+02 4.873529000000000006e+25 2.592122863963970403e-01 7.912849864734686989e+00
6.971394000000000202e-02 3.023375000000000021e-02 1.231438466472955184e+00 1.114885000000000019e+02 4.859922000000000023e+25 2.588501702624657619e-01 7.904759395695542423e+00
7.019664000000000459e-02 3.079366999999999868e-02 1.229964040751826859e+00 1.110794000000000068e+02 4.846356000000000003e+25 2.584886402439182107e-01 7.896685425253199497e+00
7.067739000000000660e-02 3.135695000000000149e-02 1.228491338497351038e+00 1.106723000000000070e+02 4.832830000000000178e+25 2.581276720978269990e-01 7.888623240648731105e+00
7.115623000000000087e-02 3.192358000000000001e-02 1.227020359709527719e+00 1.102672000000000025e+02 4.819343999999999687e+25 2.577672681846708835e-01 7.880573989130800427e+00
7.163318000000000463e-02 3.249351999999999796e-02 1.225550242655030431e+00 1.098640999999999934e+02 4.805898000000000250e+25 2.574074308744485617e-01 7.872541057674744103e+00
7.210830000000000017e-02 3.306676000000000060e-02 1.224081849067185646e+00 1.094629000000000048e+02 4.792492000000000148e+25 2.570481625466932707e-01 7.864520054582279762e+00
7.258161999999999947e-02 3.364327000000000290e-02 1.222614317212667112e+00 1.090635999999999939e+02 4.779124999999999612e+25 2.566894387352125495e-01 7.856512543928040770e+00
7.305317999999999534e-02 3.422304999999999792e-02 1.221148508824800860e+00 1.086663000000000068e+02 4.765798000000000130e+25 2.563312886188825468e-01 7.848519504714435158e+00
7.352300000000000502e-02 3.480605999999999978e-02 1.219684423903587112e+00 1.082707999999999942e+02 4.752510000000000214e+25 2.559736876754234447e-01 7.840536308991584491e+00
7.399113999999999691e-02 3.539228999999999986e-02 1.218222062449025644e+00 1.078773000000000053e+02 4.739260999999999865e+25 2.556166382096704548e-01 7.832567909717956134e+00
7.445760999999999352e-02 3.598172000000000176e-02 1.216760562727790429e+00 1.074856000000000051e+02 4.726050000000000173e+25 2.552601155301403302e-01 7.824612698794568999e+00
7.492245999999999628e-02 3.657432000000000044e-02 1.215299924739881465e+00 1.070957999999999970e+02 4.712878000000000048e+25 2.549041488905732789e-01 7.816673348381917741e+00
7.538570999999999467e-02 3.717009000000000285e-02 1.213841871951951035e+00 1.067078999999999951e+02 4.699743999999999720e+25 2.545487135425814618e-01 7.808744703970717183e+00
7.584739999999999538e-02 3.776899000000000228e-02 1.212383819164020604e+00 1.063217999999999961e+02 4.686648000000000049e+25 2.541938117148557219e-01 7.800832970822725088e+00
7.630755000000000177e-02 3.837101999999999874e-02 1.210928351576068929e+00 1.059375000000000000e+02 4.673590000000000176e+25 2.538394456451962267e-01 7.792930239358367928e+00
7.676618999999999804e-02 3.897615000000000107e-02 1.209473745721443283e+00 1.055550999999999959e+02 4.660569000000000333e+25 2.534855903858263537e-01 7.785044843713623486e+00
7.722336000000000478e-02 3.958437000000000067e-02 1.208020863333470141e+00 1.051744000000000057e+02 4.647586000000000287e+25 2.531322753116046487e-01 7.777169559739653515e+00
7.767907000000000284e-02 4.019566000000000111e-02 1.206568842678823028e+00 1.047955999999999932e+02 4.634640000000000271e+25 2.527794754169461755e-01 7.769311556170143795e+00
7.813336999999999366e-02 4.080999999999999905e-02 1.205118545490828419e+00 1.044184999999999945e+02 4.621731000000000284e+25 2.524271928619425953e-01 7.761464947627695565e+00
7.858626000000000500e-02 4.142736999999999808e-02 1.203669971769486313e+00 1.040430999999999955e+02 4.608859000000000326e+25 2.520754298155843953e-01 7.753628496531415948e+00
7.903778999999999666e-02 4.204776999999999820e-02 1.202222259781470237e+00 1.036696000000000026e+02 4.596022999999999770e+25 2.517241610707819932e-01 7.745810244777024067e+00
7.948795999999999640e-02 4.267115999999999965e-02 1.200776271260106665e+00 1.032977000000000061e+02 4.583224000000000103e+25 2.513734161229539965e-01 7.738000644669988937e+00
7.993682000000000565e-02 4.329754000000000241e-02 1.199331144472069344e+00 1.029275999999999982e+02 4.570460999999999837e+25 2.510231697062736966e-01 7.730207155459144275e+00
8.038436999999999666e-02 4.392689000000000316e-02 1.197887741150684304e+00 1.025592000000000041e+02 4.557733999999999831e+25 2.506734239104171369e-01 7.722424485732578781e+00
8.083065000000000389e-02 4.455918999999999852e-02 1.196446061295951768e+00 1.021924999999999955e+02 4.545043000000000087e+25 2.503241808337436924e-01 7.714652943865122126e+00
8.127568000000000292e-02 4.519443000000000071e-02 1.195005243174545262e+00 1.018275000000000006e+02 4.532387999999999744e+25 2.499754425833146665e-01 7.706895961871386369e+00
8.171947000000000239e-02 4.583257999999999777e-02 1.193566148519791259e+00 1.014642000000000053e+02 4.519767000000000124e+25 2.496271560448238558e-01 7.699149947559075891e+00
8.216205999999999510e-02 4.647364999999999829e-02 1.192127915598363508e+00 1.011025000000000063e+02 4.507182999999999675e+25 2.492794060723569349e-01 7.691416331809523221e+00
8.260344999999999493e-02 4.711760999999999727e-02 1.190691406143588038e+00 1.007425000000000068e+02 4.494632999999999949e+25 2.489321118381691567e-01 7.683694600395853946e+00
8.304367999999999472e-02 4.776443999999999829e-02 1.189255758422138820e+00 1.003841000000000037e+02 4.482117999999999857e+25 2.485853029831597838e-01 7.675985650927671600e+00
8.348276000000000308e-02 4.841412999999999967e-02 1.187821834167342105e+00 1.000274000000000001e+02 4.469636999999999628e+25 2.482389537721899353e-01 7.668287875268950948e+00
8.392070000000000085e-02 4.906666999999999973e-02 1.186389633379197672e+00 9.967225000000000534e+01 4.457190999999999892e+25 2.478930939400862676e-01 7.660599955359500335e+00
